1.11559899666  257650.902267
2.23119799331  259843.042529
3.34679698997  235408.541546
4.46239598662  870416.859569
5.57799498328  605987.871843
6.69359397993  169759.995953
7.80919297659  205239.3292
8.92479197324  320179.204124
10.0403909699  741878.491552
11.1559899666  843353.570791
12.2715889632  410746.38137
13.3871879599  545863.854749
14.5027869565  186220.79258
15.6183859532  222061.121956
16.7339849498  234498.68442
17.8495839465  211172.759646
18.9651829431  179410.634997
20.0807819398  59632.4504308
21.1963809365  488662.115614
22.3119799331  551675.531877
23.4275789298  448422.007971
24.5431779264  493802.631121
25.6587769231  599121.125314
26.7743759197  489762.698973
27.8899749164  603911.174629
29.005573913  658909.794696
30.1211729097  725422.576825
31.2367719064  574534.170002
32.352370903  1136882.63911
33.4679698997  945241.164692
34.5835688963  304069.676953
35.699167893  492595.898717
36.8147668896  318300.183333
37.9303658863  284640.06815
39.0459648829  341671.615445
40.1615638796  272922.308376
41.2771628763  900289.425295
42.3927618729  1089919.22168
43.5083608696  654362.406482
44.6239598662  639372.735281
45.7395588629  534350.500293
46.8551578595  447316.626294
47.9707568562  483908.713086
49.0863558528  451962.770429
50.2019548495  323377.690782
51.3175538462  424437.637429
52.4331528428  344786.676619
53.5487518395  273897.37326
54.6643508361  374505.748618
55.7799498328  213374.665279
56.8955488294  314219.978532
58.0111478261  308876.915726
59.1267468227  213390.855666
60.2423458194  365761.213562
61.3579448161  201197.113101
62.4735438127  142599.455828
63.5891428094  105733.660611
64.704741806  232120.658996
65.8203408027  162673.168453
66.9359397993  214916.232391
68.051538796  154691.85746
69.1671377926  164964.046147
70.2827367893  126772.719089
71.398335786  169606.478775
72.5139347826  148805.535798
73.6295337793  136142.739089
74.7451327759  121091.248687
75.8607317726  99462.6097655
76.9763307692  109754.713192
78.0919297659  100628.378177
79.2075287625  77315.3138774
80.3231277592  81974.6756922
81.4387267559  119780.11039
82.5543257525  144795.727873
83.6699247492  140976.582048
84.7855237458  146588.275154
85.9011227425  134640.080292
87.0167217391  70705.57873
88.1323207358  53520.028211
89.2479197324  81922.6226291
90.3635187291  104292.5632
91.4791177258  100375.15276
92.5947167224  53407.7141969
93.7103157191  148236.39593
94.8259147157  140409.331454
95.9415137124  157118.40701
97.057112709  196742.559239
98.1727117057  270548.743026
99.2883107023  212663.954956
100.403909699  226265.136958
101.519508696  161110.678661
102.635107692  62275.9983425
103.750706689  100323.742187
104.866305686  97275.3120042
105.981904682  106821.016439
107.097503679  65542.0104041
108.213102676  113340.971923
109.328701672  126341.881924
110.444300669  83849.0590886
111.559899666  125105.095156
112.675498662  136921.627332
113.791097659  148444.871136
114.906696656  134920.534075
116.022295652  132697.070084
117.137894649  145198.382605
118.253493645  117466.485809
119.369092642  82070.1639116
120.484691639  93804.4777277
121.600290635  70777.0872566
122.715889632  80120.5890265
123.831488629  60637.4003805
124.947087625  58793.8639726
126.062686622  49570.7330396
127.178285619  25103.0100419
128.293884615  58722.6249372
129.409483612  71552.921486
130.525082609  95036.5738923
131.640681605  35481.585011
132.756280602  44928.4055107
133.871879599  38538.1925611
134.987478595  37766.705951
136.103077592  75423.8999058
137.218676589  107320.305011
138.334275585  13648.3687064
139.449874582  47185.3306746
140.565473579  12592.982715
141.681072575  38185.7540059
142.796671572  80749.3094328
143.912270569  42411.2852464
145.027869565  42039.9619699
146.143468562  76608.9625869
147.259067559  52259.2322538
148.374666555  21270.6727275
149.490265552  28941.3912309
150.605864548  37006.6035542
151.721463545  39574.8027095
152.837062542  55402.6387222
153.952661538  13274.8775244
155.068260535  31957.4435284
156.183859532  74657.1444291
157.299458528  130697.469686
158.415057525  78405.5445027
159.530656522  67129.0543883
160.646255518  42386.5714325
161.761854515  31425.3003476
162.877453512  60263.1201029
163.993052508  18260.2919859
165.108651505  90408.151547
166.224250502  49834.2406343
167.339849498  30275.9490322
168.455448495  30338.2524168
169.571047492  50142.5284928
170.686646488  91342.2206652
171.802245485  18524.9602858
172.917844482  61388.4651291
174.033443478  32144.0203814
175.149042475  43534.608677
176.264641472  69231.3001544
177.380240468  81194.0750672
178.495839465  135903.40972
179.611438462  77950.725605
180.727037458  33504.7542851
181.842636455  13974.9594097
182.958235452  58564.7256696
184.073834448  42005.877329
185.189433445  39441.7498021
186.305032441  30972.9094475
187.420631438  22857.5398124
188.536230435  56389.3324912
189.651829431  83004.0317809
190.767428428  45736.9930666
191.883027425  46331.0802119
192.998626421  88575.8885185
194.114225418  42059.4694793
195.229824415  13927.6151556
196.345423411  52401.1594465
197.461022408  15219.5003552
198.576621405  120167.580035
199.692220401  84800.8456666
200.807819398  42636.9471562
201.923418395  43687.1935657
203.039017391  51141.0493954
204.154616388  40554.3534474
205.270215385  109071.452701
206.385814381  82458.1466481
207.501413378  67951.2654145
208.617012375  29167.8081547
209.732611371  57834.8030393
210.848210368  68878.2121855
211.963809365  71330.685663
213.079408361  94638.0839832
214.195007358  83946.0938203
215.310606355  111716.519648
216.426205351  98144.3200187
217.541804348  141052.214565
218.657403344  175070.832257
219.773002341  160656.928078
220.888601338  164022.076652
222.004200334  181207.264554
223.119799331  167829.629627
224.235398328  153977.683741
225.350997324  103625.63472
226.466596321  156784.311165
227.582195318  141230.49107
228.697794314  82006.3717211
229.813393311  134205.672827
230.928992308  122716.555252
232.044591304  127083.928072
233.160190301  79212.5540267
234.275789298  205770.960501
235.391388294  290177.589881
236.506987291  273858.743331
237.622586288  349836.221259
238.738185284  255448.953464
239.853784281  204842.217242
240.969383278  183812.479377
242.084982274  194859.023457
243.200581271  70494.6811003
244.316180268  133034.81081
245.431779264  138796.709239
246.547378261  109475.379714
247.662977258  71815.0993918
248.778576254  95266.446791
249.894175251  182157.701247
251.009774247  199140.381364
252.125373244  192306.532722
253.240972241  198330.636915
254.356571237  164742.556736
255.472170234  113210.803344
256.587769231  107216.295745
257.703368227  140120.893258
258.818967224  153459.150938
259.934566221  139642.202285
261.050165217  170709.175171
262.165764214  192719.605499
263.281363211  211513.382479
264.396962207  242074.247349
265.512561204  181685.132362
266.628160201  237394.339072
267.743759197  223530.108781
268.859358194  311835.355829
269.974957191  237006.176942
271.090556187  339582.406861
272.206155184  155321.776169
273.321754181  210341.364134
274.437353177  298000.056438
275.552952174  543976.427664
276.668551171  318673.618674
277.784150167  463173.477111
278.899749164  473129.465098
280.015348161  322609.440706
281.130947157  568565.855092
282.246546154  417540.175577
283.362145151  527775.277416
284.477744147  652380.048684
285.593343144  499097.165155
286.70894214  700432.075292
287.824541137  753035.018598
288.940140134  698964.615438
290.05573913  838406.894583
291.171338127  1007328.81441
292.286937124  1035199.51961
293.40253612  1731365.11536
294.518135117  1436035.52626
295.633734114  437130.197879
296.74933311  549502.241199
297.864932107  459669.248209
298.980531104  516149.141226
300.0961301  802080.711999
301.211729097  497152.252423
302.327328094  1551843.78061
303.44292709  1874174.99944
304.558526087  951041.69904
305.674125084  1205768.71882
306.78972408  1099735.4289
307.905323077  1012102.93955
309.020922074  824188.884978
310.13652107  1012383.75734
311.252120067  837863.908922
312.367719064  764005.724555
313.48331806  943806.768258
314.598917057  839455.675212
315.714516054  102863.559993
316.83011505  310754.150174
317.945714047  367279.401686
319.061313043  409533.16163
320.17691204  389413.716181
321.292511037  327911.766965
322.408110033  965168.967151
323.52370903  729261.027442
324.639308027  1503520.17555
325.754907023  1328075.39963
326.87050602  575537.358986
327.986105017  370451.621252
329.101704013  307678.289005
330.21730301  1102849.06338
331.332902007  1590633.63062
332.448501003  431972.272872
333.5641  478779.565433
