1.11559899666  23338509292.3
2.23119799331  44060908.1537
3.34679698997  30090659.5613
4.46239598662  28358411.9466
5.57799498328  23139218.6194
6.69359397993  13863551.6475
7.80919297659  5049415.20083
8.92479197324  8621105.23824
10.0403909699  23564246.9284
11.1559899666  22099179.125
12.2715889632  13992868.9388
13.3871879599  9521044.0143
14.5027869565  7271141.26874
15.6183859532  5684932.97237
16.7339849498  6098994.471
17.8495839465  6857126.80521
18.9651829431  6527545.66372
20.0807819398  5729061.09242
21.1963809365  1836959.56044
22.3119799331  5051635.43486
23.4275789298  5863915.43271
24.5431779264  6529649.35225
25.6587769231  4382242.11701
26.7743759197  4399712.50012
27.8899749164  3028678.56176
29.005573913  3434720.07615
30.1211729097  2705322.93183
31.2367719064  2767432.03138
32.352370903  3419318.7141
33.4679698997  1701836.00969
34.5835688963  1083124.93685
35.699167893  2044325.31963
36.8147668896  4376857.06261
37.9303658863  4932575.36327
39.0459648829  3749257.52245
40.1615638796  3143189.65515
41.2771628763  2508858.00756
42.3927618729  2801806.41693
43.5083608696  3249069.35203
44.6239598662  3458281.18319
45.7395588629  2937326.41073
46.8551578595  3018634.42246
47.9707568562  3234162.97874
49.0863558528  2856311.47892
50.2019548495  3074581.26093
51.3175538462  3146540.84218
52.4331528428  2825310.77708
53.5487518395  2920882.23171
54.6643508361  2910492.91158
55.7799498328  2455558.3274
56.8955488294  2020389.912
58.0111478261  1818312.6306
59.1267468227  1265873.34664
60.2423458194  1618376.76728
61.3579448161  2024187.62763
62.4735438127  2260217.12897
63.5891428094  2478031.95233
64.704741806  1802185.06535
65.8203408027  1577140.54326
66.9359397993  1720388.14355
68.051538796  1980032.03992
69.1671377926  2182507.11763
70.2827367893  2254364.07283
71.398335786  2572966.46903
72.5139347826  2269207.25494
73.6295337793  1946602.54693
74.7451327759  1677753.55379
75.8607317726  1685457.39474
76.9763307692  1756661.38943
78.0919297659  1809401.66131
79.2075287625  1804345.80696
80.3231277592  1654490.53085
81.4387267559  1476849.71348
82.5543257525  1382448.72783
83.6699247492  1686487.27886
84.7855237458  1706853.62525
85.9011227425  1671216.97235
87.0167217391  1736475.05931
88.1323207358  1949669.30394
89.2479197324  2182218.60942
90.3635187291  2323208.01077
91.4791177258  2194169.73263
92.5947167224  2399429.97231
93.7103157191  2724164.45513
94.8259147157  2827418.61928
95.9415137124  2941517.04575
97.057112709  2897580.2366
98.1727117057  3015788.66542
99.2883107023  3387099.50044
100.403909699  3506746.34692
101.519508696  3148964.15362
102.635107692  2968589.84779
103.750706689  2494033.73784
104.866305686  2144114.68336
105.981904682  2433258.32185
107.097503679  2673077.85123
108.213102676  2322706.95939
109.328701672  2076977.66881
110.444300669  2064712.36524
111.559899666  2777100.81684
112.675498662  2577324.1999
113.791097659  2839521.31066
114.906696656  3057382.23084
116.022295652  3239074.50473
117.137894649  3226991.71804
118.253493645  2585907.07472
119.369092642  2524999.20477
120.484691639  2022968.40797
121.600290635  2216540.57933
122.715889632  2407967.08651
123.831488629  2349319.46835
124.947087625  2132337.17148
126.062686622  2274414.58321
127.178285619  2466310.06031
128.293884615  2160417.95089
129.409483612  2119131.54533
130.525082609  2345801.58125
131.640681605  2291910.50134
132.756280602  2118377.76003
133.871879599  2430060.35039
134.987478595  2401039.81066
136.103077592  2378373.56108
137.218676589  2665395.13538
138.334275585  2373301.08434
139.449874582  2263818.39394
140.565473579  2315903.43366
141.681072575  2212348.37832
142.796671572  1781292.18462
143.912270569  1669204.58325
145.027869565  2130658.7287
146.143468562  1988711.89777
147.259067559  2234897.67115
148.374666555  2159091.81597
149.490265552  2251669.67916
150.605864548  2040986.38956
151.721463545  2048182.53563
152.837062542  1901367.66538
153.952661538  2167111.00473
155.068260535  2362112.93858
156.183859532  2563952.19611
157.299458528  2966465.22864
158.415057525  2640133.82738
159.530656522  1963766.35721
160.646255518  2081842.34287
161.761854515  2066555.39262
162.877453512  1872968.88843
163.993052508  2073944.05647
165.108651505  2449149.12854
166.224250502  2812475.05866
167.339849498  3030694.46701
168.455448495  3036931.18391
169.571047492  2829873.77693
170.686646488  2474452.98143
171.802245485  2104004.21367
172.917844482  1907944.44593
174.033443478  2113819.05423
175.149042475  2138228.89328
176.264641472  2025264.60931
177.380240468  2734031.44545
178.495839465  3084625.4358
179.611438462  2677063.73759
180.727037458  2476481.37219
181.842636455  2281398.70004
182.958235452  2009887.58457
184.073834448  2174002.10358
185.189433445  2175289.45634
186.305032441  2409723.86302
187.420631438  2320167.66815
188.536230435  2411523.90548
189.651829431  2154723.15499
190.767428428  2318030.72447
191.883027425  1823478.13766
192.998626421  1953942.87669
194.114225418  2436777.83818
195.229824415  2561348.05325
196.345423411  2514059.07139
197.461022408  2646503.58391
198.576621405  2984468.62618
199.692220401  2674060.73596
200.807819398  2710668.16523
201.923418395  2754735.23403
203.039017391  2411304.39491
204.154616388  2619582.76419
205.270215385  2692226.53698
206.385814381  2442103.77582
207.501413378  2499941.61099
208.617012375  2865666.6499
209.732611371  2653588.34506
210.848210368  2498076.53766
211.963809365  2763617.2967
213.079408361  2844280.03002
214.195007358  2628957.06282
215.310606355  2409255.88385
216.426205351  3019542.28173
217.541804348  3105123.27868
218.657403344  3890898.20169
219.773002341  3921561.79044
220.888601338  3716841.07284
222.004200334  3466215.33915
223.119799331  3159116.45462
224.235398328  3418018.67268
225.350997324  2551693.86141
226.466596321  2577431.23777
227.582195318  2894249.43972
228.697794314  3344563.50296
229.813393311  3057048.89481
230.928992308  2704883.31095
232.044591304  3159288.09314
233.160190301  3775926.35944
234.275789298  4021864.86866
235.391388294  4497286.75372
236.506987291  4361749.09341
237.622586288  3899600.85944
238.738185284  3762194.82903
239.853784281  3834985.88851
240.969383278  3701426.54526
242.084982274  3580956.0947
243.200581271  3167090.24649
244.316180268  2908099.73625
245.431779264  3091818.02498
246.547378261  2916156.77355
247.662977258  2616136.41703
248.778576254  2339671.23688
249.894175251  2261028.37511
251.009774247  2318763.09008
252.125373244  2300541.8089
253.240972241  1893577.52967
254.356571237  2031222.01943
255.472170234  2284927.63821
256.587769231  2502159.84343
257.703368227  2519517.67124
258.818967224  2456165.73054
259.934566221  2366326.23067
261.050165217  2365223.9812
262.165764214  2755552.57238
263.281363211  3225469.39846
264.396962207  3672317.97951
265.512561204  3230856.27497
266.628160201  3140774.28877
267.743759197  2861151.09445
268.859358194  2496218.37745
269.974957191  2297810.10731
271.090556187  2636518.20027
272.206155184  3640206.17479
273.321754181  3333933.85962
274.437353177  2998094.8433
275.552952174  2406922.27562
276.668551171  1890429.83542
277.784150167  2726633.62237
278.899749164  3042155.3805
280.015348161  3712653.97223
281.130947157  4418642.16268
282.246546154  4452710.39058
283.362145151  4324787.7029
284.477744147  4836377.09474
285.593343144  4745271.04098
286.70894214  4426586.23177
287.824541137  5032845.89218
288.940140134  4716834.84184
290.05573913  4608725.38352
291.171338127  5448506.15598
292.286937124  5140018.74052
293.40253612  4450742.58143
294.518135117  4001834.4412
295.633734114  5034337.8821
296.74933311  6029840.69581
297.864932107  7965685.30813
298.980531104  7097422.91217
300.0961301  3328720.17855
301.211729097  1770903.3252
302.327328094  2793978.64367
303.44292709  5636818.9896
304.558526087  4581003.87849
305.674125084  4496680.78952
306.78972408  5732625.90189
307.905323077  5075803.53551
309.020922074  7403981.86163
310.13652107  7405031.39105
311.252120067  11079239.3263
312.367719064  9990733.90525
313.48331806  8642340.35897
314.598917057  3155649.02388
315.714516054  9882398.17627
316.83011505  11306252.3049
317.945714047  11926166.2088
319.061313043  10651405.1226
320.17691204  9969286.18349
321.292511037  12803579.8165
322.408110033  16834630.3525
323.52370903  24843685.6465
324.639308027  39398139.5565
325.754907023  42183588.0306
326.87050602  15496847.0046
327.986105017  9114062.37203
329.101704013  25126731.5747
330.21730301  42111512.0742
331.332902007  51823265.2061
332.448501003  55216053.4088
333.5641  81185404.2853
