1.11559899666  5345663497.62
2.23119799331  5902272.2007
3.34679698997  3775412.57637
4.46239598662  2029934.55419
5.57799498328  1375485.63797
6.69359397993  933035.744093
7.80919297659  412715.296717
8.92479197324  667968.564731
10.0403909699  442205.001645
11.1559899666  811189.666973
12.2715889632  803238.158049
13.3871879599  805851.808314
14.5027869565  626666.938109
15.6183859532  636651.756081
16.7339849498  585981.662998
17.8495839465  545668.836112
18.9651829431  520788.781078
20.0807819398  628862.689705
21.1963809365  589153.464062
22.3119799331  570094.92468
23.4275789298  411724.393651
24.5431779264  520760.898118
25.6587769231  632414.24904
26.7743759197  627540.47364
27.8899749164  1012332.70657
29.005573913  853517.406099
30.1211729097  834672.300105
31.2367719064  857727.540331
32.352370903  892585.752658
33.4679698997  1066129.55639
34.5835688963  865389.620415
35.699167893  743792.894985
36.8147668896  617823.707863
37.9303658863  657982.262763
39.0459648829  807733.033216
40.1615638796  832474.48917
41.2771628763  761372.972601
42.3927618729  740195.410523
43.5083608696  598353.441936
44.6239598662  508521.211645
45.7395588629  305845.170698
46.8551578595  321685.949682
47.9707568562  410706.998711
49.0863558528  209222.531615
50.2019548495  273966.435058
51.3175538462  448119.581063
52.4331528428  270413.095475
53.5487518395  215135.733483
54.6643508361  199345.887367
55.7799498328  191037.617977
56.8955488294  179286.858353
58.0111478261  151914.649176
59.1267468227  133397.624047
60.2423458194  116431.550051
61.3579448161  59784.5848269
62.4735438127  67934.3744415
63.5891428094  98623.7549742
64.704741806  75257.3868358
65.8203408027  80050.1231676
66.9359397993  64452.6942258
68.051538796  81634.6084221
69.1671377926  84689.3232963
70.2827367893  136827.013018
71.398335786  148811.843265
72.5139347826  99517.6487722
73.6295337793  129719.296707
74.7451327759  128541.69288
75.8607317726  136161.847589
76.9763307692  120117.468897
78.0919297659  135762.946829
79.2075287625  173739.295216
80.3231277592  187735.641695
81.4387267559  152806.941286
82.5543257525  182650.620232
83.6699247492  174844.365357
84.7855237458  199929.11406
85.9011227425  221331.014727
87.0167217391  181205.542874
88.1323207358  207489.140232
89.2479197324  203613.012406
90.3635187291  155247.464389
91.4791177258  165902.961045
92.5947167224  162714.955793
93.7103157191  172190.462442
94.8259147157  204082.194479
95.9415137124  173005.494381
97.057112709  162693.424383
98.1727117057  191252.136997
99.2883107023  194713.223146
100.403909699  227375.158047
101.519508696  209819.692817
102.635107692  196975.311135
103.750706689  205018.785817
104.866305686  190334.864164
105.981904682  178652.91636
107.097503679  153970.844945
108.213102676  113156.43444
109.328701672  110850.720983
110.444300669  130344.609832
111.559899666  183705.45678
112.675498662  190017.348722
113.791097659  174016.727501
114.906696656  178506.069819
116.022295652  179604.493157
117.137894649  166841.936696
118.253493645  141517.59254
119.369092642  150430.019093
120.484691639  160115.970778
121.600290635  145595.4479
122.715889632  169911.629987
123.831488629  185272.250708
124.947087625  196168.684686
126.062686622  202255.817548
127.178285619  194337.090864
128.293884615  182065.446993
129.409483612  175116.606627
130.525082609  164848.863832
131.640681605  160949.312439
132.756280602  156259.857391
133.871879599  167902.852726
134.987478595  183243.400452
136.103077592  188980.526591
137.218676589  189139.263091
138.334275585  186462.008604
139.449874582  184629.000874
140.565473579  199165.465258
141.681072575  218957.803261
142.796671572  223525.722339
143.912270569  198650.924589
145.027869565  199734.584488
146.143468562  219063.421951
147.259067559  226829.934571
148.374666555  158622.166052
149.490265552  151889.463399
150.605864548  173059.721473
151.721463545  184920.161454
152.837062542  188414.354811
153.952661538  172606.852879
155.068260535  187195.575751
156.183859532  192428.208841
157.299458528  205396.897094
158.415057525  251688.617308
159.530656522  272564.059733
160.646255518  285827.127375
161.761854515  308525.741468
162.877453512  318164.582514
163.993052508  338445.224815
165.108651505  357557.800571
166.224250502  364936.128916
167.339849498  339198.035661
168.455448495  341136.051893
169.571047492  371227.194421
170.686646488  367889.984626
171.802245485  352216.048152
172.917844482  334905.270263
174.033443478  328481.877068
175.149042475  307803.728909
176.264641472  296886.267574
177.380240468  277291.75164
178.495839465  228886.395507
179.611438462  216894.498142
180.727037458  213417.559266
181.842636455  199043.751545
182.958235452  219766.618133
184.073834448  218167.775683
185.189433445  206520.145957
186.305032441  183339.370562
187.420631438  193666.860894
188.536230435  280128.269647
189.651829431  273648.743698
190.767428428  252374.730952
191.883027425  253895.079674
192.998626421  288977.802999
194.114225418  286334.03848
195.229824415  263453.850058
196.345423411  247042.052566
197.461022408  252373.859158
198.576621405  258953.291707
199.692220401  261725.067405
200.807819398  256713.092775
201.923418395  237942.57142
203.039017391  224005.656645
204.154616388  233400.272864
205.270215385  241825.529935
206.385814381  259866.837775
207.501413378  273314.001038
208.617012375  295123.941984
209.732611371  310719.022325
210.848210368  304872.566182
211.963809365  291289.453186
213.079408361  270250.914556
214.195007358  234274.818038
215.310606355  260645.583547
216.426205351  247737.863738
217.541804348  235784.265248
218.657403344  281229.299802
219.773002341  306286.627208
220.888601338  307981.022124
222.004200334  303757.369216
223.119799331  335582.078489
224.235398328  328248.051936
225.350997324  235642.04354
226.466596321  202760.302419
227.582195318  209417.783988
228.697794314  288315.492882
229.813393311  338485.56703
230.928992308  364883.660868
232.044591304  397686.922284
233.160190301  386613.199901
234.275789298  416710.167338
235.391388294  456940.505715
236.506987291  395955.88227
237.622586288  393548.59181
238.738185284  338773.063058
239.853784281  364545.506705
240.969383278  435167.264662
242.084982274  371557.298143
243.200581271  355317.187216
244.316180268  366624.465619
245.431779264  347197.822139
246.547378261  460839.683526
247.662977258  475267.757119
248.778576254  420068.348774
249.894175251  519281.917706
251.009774247  474740.66609
252.125373244  420202.478332
253.240972241  444285.2375
254.356571237  376205.244839
255.472170234  467817.943016
256.587769231  438211.738792
257.703368227  346601.567869
258.818967224  310403.306785
259.934566221  356167.399767
261.050165217  340352.580651
262.165764214  347683.22477
263.281363211  270010.883241
264.396962207  408722.58579
265.512561204  380435.475167
266.628160201  238376.786049
267.743759197  232618.331497
268.859358194  185931.633794
269.974957191  233789.571063
271.090556187  222521.300454
272.206155184  295237.684095
273.321754181  205899.922728
274.437353177  183459.743618
275.552952174  361756.121659
276.668551171  419658.187638
277.784150167  483903.180498
278.899749164  578265.628428
280.015348161  623917.069507
281.130947157  659254.830742
282.246546154  720453.142066
283.362145151  917016.604609
284.477744147  1538894.68586
285.593343144  952767.874268
286.70894214  736855.445909
287.824541137  1464871.191
288.940140134  1161989.93906
290.05573913  1118882.17136
291.171338127  1884142.81864
292.286937124  2245402.41913
293.40253612  2813352.23856
294.518135117  2931070.3854
295.633734114  3246090.24092
296.74933311  3190275.67788
297.864932107  2632419.93839
298.980531104  2503779.77596
300.0961301  3053403.25272
301.211729097  3598773.06104
302.327328094  4491314.97677
303.44292709  3809293.10956
304.558526087  3708385.85273
305.674125084  3655972.65769
306.78972408  3787572.91532
307.905323077  4551388.64278
309.020922074  2858543.62437
310.13652107  2918754.7298
311.252120067  2435217.07545
312.367719064  1950831.67601
313.48331806  2737063.24961
314.598917057  2866164.85455
315.714516054  3100089.88176
316.83011505  2601575.87574
317.945714047  2762302.14812
319.061313043  3006103.85265
320.17691204  3309867.6547
321.292511037  3301756.55555
322.408110033  4303025.41059
323.52370903  4346947.88334
324.639308027  4449332.252
325.754907023  2458325.50859
326.87050602  3763796.09117
327.986105017  2357143.37912
329.101704013  5401447.59275
330.21730301  8071523.27464
331.332902007  12074806.3574
332.448501003  22765249.6196
333.5641  36078484.4084
