1.11559899666  2300.297683
2.23119799331  10947.5803692
3.34679698997  6600.72057256
4.46239598662  5614.45519992
5.57799498328  9799.01498622
6.69359397993  14762.6525477
7.80919297659  4858.83546976
8.92479197324  2548.8718358
10.0403909699  4928.55286804
11.1559899666  16195.3133208
12.2715889632  10065.3935621
13.3871879599  8068.59374506
14.5027869565  8116.9607948
15.6183859532  8654.30607082
16.7339849498  8349.03944145
17.8495839465  6520.95018023
18.9651829431  3690.32566041
20.0807819398  1982.57198818
21.1963809365  6767.16669809
22.3119799331  6628.12295805
23.4275789298  3069.25566028
24.5431779264  5733.61657882
25.6587769231  7356.01449664
26.7743759197  7323.17266566
27.8899749164  19206.9934545
29.005573913  14635.2276687
30.1211729097  16275.2874935
31.2367719064  21252.5955485
32.352370903  34591.1505757
33.4679698997  65494.2118455
34.5835688963  6515.63124588
35.699167893  19987.0843519
36.8147668896  8631.89054179
37.9303658863  16926.7205036
39.0459648829  32835.0441735
40.1615638796  3678.92636144
41.2771628763  25244.524184
42.3927618729  42585.7180805
43.5083608696  56240.1369469
44.6239598662  20235.1987377
45.7395588629  6413.02507547
46.8551578595  20724.2799754
47.9707568562  43365.1055572
49.0863558528  2562.09680804
50.2019548495  3456.64617708
51.3175538462  19789.0162654
52.4331528428  11545.9111353
53.5487518395  11075.9245823
54.6643508361  13609.2430344
55.7799498328  15452.1750703
56.8955488294  15503.5121207
58.0111478261  14702.4228607
59.1267468227  16534.2509364
60.2423458194  13867.617808
61.3579448161  13365.2199188
62.4735438127  13633.2027519
63.5891428094  19110.5169432
64.704741806  20150.0358789
65.8203408027  18144.4386501
66.9359397993  17133.6912074
68.051538796  15462.9952476
69.1671377926  15582.8173903
70.2827367893  18541.4191186
71.398335786  12582.6791939
72.5139347826  15254.7347635
73.6295337793  15585.3490588
74.7451327759  14118.9025983
75.8607317726  7919.29183258
76.9763307692  13623.4176538
78.0919297659  12349.8133342
79.2075287625  12218.7588837
80.3231277592  12662.4050738
81.4387267559  11936.4280684
82.5543257525  13076.391704
83.6699247492  11251.2763436
84.7855237458  10299.5044387
85.9011227425  8727.65245846
87.0167217391  8262.29961993
88.1323207358  9391.98509276
89.2479197324  9424.36715797
90.3635187291  9618.99639579
91.4791177258  9880.36021143
92.5947167224  9681.81084055
93.7103157191  10195.4102286
94.8259147157  9188.11359766
95.9415137124  9395.90583874
97.057112709  10176.3767408
98.1727117057  10220.8378238
99.2883107023  9456.32951442
100.403909699  6481.25502378
101.519508696  10492.7027083
102.635107692  11090.4719057
103.750706689  10844.7710107
104.866305686  10519.6316956
105.981904682  12599.3362442
107.097503679  8644.33025307
108.213102676  7388.58153375
109.328701672  9327.43606301
110.444300669  10930.8832611
111.559899666  9199.27695388
112.675498662  11449.7109142
113.791097659  12052.1385812
114.906696656  11648.2069306
116.022295652  12641.0215768
117.137894649  12344.7791207
118.253493645  11922.4678598
119.369092642  10147.7840333
120.484691639  11095.7880319
121.600290635  12336.3436394
122.715889632  13046.1330003
123.831488629  12517.6887541
124.947087625  13208.3936578
126.062686622  13575.6530895
127.178285619  13284.5289824
128.293884615  14020.0212284
129.409483612  12793.4332761
130.525082609  14020.098194
131.640681605  14692.6852212
132.756280602  14451.1146377
133.871879599  14078.3311235
134.987478595  15864.5912743
136.103077592  13515.9111174
137.218676589  16310.3269009
138.334275585  16390.9000236
139.449874582  14635.6894956
140.565473579  13356.4092834
141.681072575  14343.4677929
142.796671572  13679.6202576
143.912270569  13019.608218
145.027869565  13120.8979259
146.143468562  12953.8340611
147.259067559  7689.84070146
148.374666555  13426.2950341
149.490265552  12922.5336233
150.605864548  12852.6352724
151.721463545  13121.5655778
152.837062542  11625.8966535
153.952661538  12260.0738614
155.068260535  12790.5348026
156.183859532  15029.1988644
157.299458528  14246.8265482
158.415057525  16470.986705
159.530656522  16622.4194468
160.646255518  14483.0907102
161.761854515  13411.7661862
162.877453512  11883.6953889
163.993052508  10987.4962086
165.108651505  8540.57683311
166.224250502  6733.76553973
167.339849498  8435.28337939
168.455448495  8483.47857626
169.571047492  6849.84766136
170.686646488  8787.36997156
171.802245485  11434.5607795
172.917844482  12508.9731374
174.033443478  14279.2692457
175.149042475  15596.6628069
176.264641472  18105.7182391
177.380240468  18146.5050089
178.495839465  15876.1150834
179.611438462  16940.0867201
180.727037458  14582.2074498
181.842636455  14137.8575352
182.958235452  13560.4529329
184.073834448  15480.7499251
185.189433445  15337.6423457
186.305032441  15598.2457739
187.420631438  16392.5917632
188.536230435  9496.72614257
189.651829431  16181.6171104
190.767428428  16578.916928
191.883027425  16640.3175454
192.998626421  17685.2425149
194.114225418  18757.1440605
195.229824415  17667.7088275
196.345423411  19583.2223356
197.461022408  22184.8661022
198.576621405  22330.7036879
199.692220401  18718.6098593
200.807819398  22225.3477157
201.923418395  19951.026766
203.039017391  20716.3341738
204.154616388  21306.5634625
205.270215385  20566.8246458
206.385814381  18985.0015586
207.501413378  21046.6519588
208.617012375  20174.1342492
209.732611371  20855.833501
210.848210368  20527.6233361
211.963809365  19680.6089331
213.079408361  20750.37109
214.195007358  19850.1718499
215.310606355  18062.3340223
216.426205351  16712.0256531
217.541804348  19864.17571
218.657403344  20808.3989977
219.773002341  21557.2327571
220.888601338  20096.9450508
222.004200334  21037.7816054
223.119799331  20220.8788436
224.235398328  16437.4253887
225.350997324  19761.2749208
226.466596321  17061.0866592
227.582195318  13673.9936997
228.697794314  16186.7939248
229.813393311  23871.3901778
230.928992308  20166.7820603
232.044591304  21036.2362109
233.160190301  21767.8185512
234.275789298  20838.9205165
235.391388294  13024.9406913
236.506987291  19229.7638312
237.622586288  21031.9026801
238.738185284  21190.0532083
239.853784281  19798.4189299
240.969383278  19591.9407468
242.084982274  21999.9355614
243.200581271  21141.9643526
244.316180268  21834.3407484
245.431779264  21512.071794
246.547378261  21330.2790779
247.662977258  21512.9701966
248.778576254  19153.5562509
249.894175251  20476.6246217
251.009774247  24456.6361463
252.125373244  27040.1290561
253.240972241  31807.4353456
254.356571237  29387.060602
255.472170234  31553.4133091
256.587769231  30818.6099733
257.703368227  31528.961064
258.818967224  35205.1531581
259.934566221  20715.0066626
261.050165217  37384.0178049
262.165764214  41773.0018394
263.281363211  41389.0848298
264.396962207  34559.2465188
265.512561204  51552.785061
266.628160201  43861.2776973
267.743759197  44061.9024697
268.859358194  49426.8740412
269.974957191  52991.5553072
271.090556187  59579.695449
272.206155184  57208.7806394
273.321754181  41320.3980494
274.437353177  41013.5794503
275.552952174  43087.081059
276.668551171  52015.4225499
277.784150167  46832.5419695
278.899749164  50004.4914706
280.015348161  50465.8500741
281.130947157  45006.9942836
282.246546154  37091.3959175
283.362145151  39154.1401049
284.477744147  67957.7801462
285.593343144  12021.1128401
286.70894214  9023.38276561
287.824541137  154670.590043
288.940140134  74859.9833144
290.05573913  23460.9538057
291.171338127  74974.2656008
292.286937124  211048.739261
293.40253612  161860.805389
294.518135117  97184.2709053
295.633734114  14345.3368413
296.74933311  129687.456748
297.864932107  67719.5101858
298.980531104  34981.4238136
300.0961301  82050.5664736
301.211729097  27095.631436
302.327328094  275909.370292
303.44292709  147624.842932
304.558526087  91885.6174718
305.674125084  71287.8647881
306.78972408  64945.3561597
307.905323077  86353.5192561
309.020922074  33358.1807276
310.13652107  33949.9025158
311.252120067  26811.9227985
312.367719064  14542.740863
313.48331806  31822.0544984
314.598917057  32921.4993004
315.714516054  9773.43935491
316.83011505  18434.8483696
317.945714047  33010.5615321
319.061313043  42830.8276789
320.17691204  44992.5841939
321.292511037  42766.3035746
322.408110033  43084.0553493
323.52370903  54471.6916164
324.639308027  88830.4336499
325.754907023  27399.0280319
326.87050602  14362.103786
327.986105017  27750.2965093
329.101704013  85462.6358866
330.21730301  57501.8563238
331.332902007  33396.8694713
332.448501003  39801.491483
333.5641  66918.6533978
